Rad (kpc),Vobs (km/s),errV (km/s)
0.09271135852436495,2.207864209845257,3.3900199892148395
0.17820949012659143,5.8676671772422475,2.840248097070809
0.25079621318175443,8.269023640535199,2.479256120382901
0.3218571387831591,10.35082367734269,2.191245480065322
0.3913683959127212,13.231725923985016,1.9680698738669113
0.4611899736465772,13.67072267614122,1.8197334318561988
0.5332482875373942,14.769455798894388,1.6461011406169177
0.6047986179301277,16.056553154857248,1.6196278232733285
0.6756733003293537,16.952964829825962,1.476786924587562
0.7474703223110225,18.49715083671526,1.4205704001433805
0.8184146818435325,19.633974988190793,1.360578936235811
0.8888539784808446,20.64151439350817,1.311420356800745
0.9602097832980242,21.835615728687454,1.2477992252849093
1.0318870433035205,22.608012094395303,1.2135249222152458
1.1021293568497128,23.569897856668984,1.1764600151380213
1.172433864285176,24.248434469885197,1.1401269127671174
1.2443377817492707,25.91517464310155,1.1028425168947167
1.3164992863563743,27.409245701913484,1.0608016089524623
1.387185332815537,28.771383970292536,1.0562043885628791
1.45743875817733,29.982200356426272,1.0159741950235712
1.5291724192800056,30.722019217877854,0.9904474832843972
1.6008700937513711,31.520518108643177,0.9724368618270245
1.6717203970675718,32.753567028145966,0.9525606693918808
1.7426447244819405,33.82111509917992,0.9302823345589885
1.8139883284744611,34.59933905305418,0.9117356704943052
1.8853496371455454,34.89235927843145,0.8974734685724316
1.95627120072751,34.79571458834478,0.8841568634203504
2.0271345296384675,34.70335614790851,0.8596540653311716
2.097670359704627,35.279252540425674,0.8565461176213367
2.168546933373897,35.88424548075065,0.8338886135982557
2.2398077154898264,35.65322666192765,0.8252322496617416
2.3112011141103617,36.82294771968409,0.8066533069789265
2.382614776234282,37.31943207549132,0.7957270645877217
2.453059813232649,37.36621199576673,0.7894034844011559
2.5245608894180243,38.007693928894625,0.7659972736791283
2.5969643355330083,39.01259556896379,0.7581301189430686
2.668070409299826,39.85362680383241,0.7564273461056569
2.7387256080476017,39.9723420916196,0.7402328918524852
2.8099284820869106,40.80102137596405,0.7322623051557267
2.8813615128574073,40.92732977802194,0.7261868525016018
2.9527022539431926,41.018055217401866,0.7120315654049714
3.023473948299654,41.22977953951972,0.7135888289660051
3.094344853252185,41.48877328220499,0.6946400855135484
3.165887031016705,41.89307930181298,0.6920145172389601
3.237013132264379,42.36394588236639,0.6837926545251877
3.3083383873891568,42.31819004547871,0.6747219021600535
3.3798517819591485,42.959076541376966,0.6672621896739894
3.4509326987330193,42.59169818917312,0.6617087377701165
3.521892951913308,42.16786820925601,0.656283198355074
3.5930805666193684,42.20056514964627,0.6489107880777377
3.664687787049677,42.70872865242345,0.6396373548741809
3.7355514062721307,43.82146055650272,0.6376509002575496
3.80630546750502,43.78858892339255,0.6329955147538434
3.877948035922092,43.73220054749158,0.6219145462279889
3.949437345411633,43.716564945218074,0.6198342875439891
4.019785736387136,44.774469715999125,0.6181803265058676
4.090814023517192,45.862613747186415,0.605630013213634
4.162247608556531,45.805185793474195,0.6070842527286091
4.233593279833924,45.68812071762983,0.5966150059650931
4.304826707590951,46.0079471134882,0.5961590108802295
4.375547356726223,45.24321165063792,0.5878572510741582
4.446666494215243,45.92093143182523,0.5848667477461401
4.518052238481595,46.09678937679354,0.5815664330775261
4.589121812904027,45.632709041790406,0.5723737922873692
4.660235480213568,45.932826153380184,0.5730790460036278
4.731175627470245,45.56857836444008,0.5664083957406487
4.802083537561253,44.684649118240635,0.5646882039498959
4.873344854919542,45.026954240031,0.5595253298755376
4.944538499459856,45.38208962329372,0.5526861297365524
5.016007943783329,46.74860886678906,0.5466991212299236
5.086969463227578,44.947045108780266,0.5491944442368893
5.1583014481695395,44.76733186143394,0.5372994472635066
5.230049525588845,45.23824261057655,0.5393951807574977
5.30139205576599,45.52487731584288,0.5346454178554514
5.372431098530243,44.84927382623788,0.5332603877204173
5.443715030368216,44.25094926205589,0.5277863879834216
5.515298204136252,44.64466677848335,0.5254983789166666
5.586335231125253,44.282141695531855,0.523426950427341
5.657073280690521,45.25696511932517,0.5203331342587464
5.728278399334611,44.640781612570144,0.5153087105720155
5.7992118525474705,44.6982465475771,0.5161238542313499
5.870449308146823,44.72695732501117,0.5068527969509905
5.941879263033044,44.208225123770674,0.5065112818274593
6.012875715306965,42.69968194074488,0.5023495513349002
6.083736222056714,41.54698698173123,0.5016153268508768
6.155175523580623,42.876932952443696,0.4986097466187341
6.226461286255258,43.465458946832555,0.495639706985531
6.297567754795913,43.49077299439293,0.49186619172715695
6.368617349111403,46.0733583888142,0.4926475159504026
6.439698341675712,44.455475946018566,0.48653389859898594
6.511152195334502,44.42370473472734,0.48238356458521997
6.5821882558478055,45.47510252526138,0.48443951842755884
6.6531127150099785,44.04989896206648,0.4778951763845833
6.724077437158963,43.74966421230214,0.47816437107685966
6.795539117480595,42.67420792552569,0.47217107520225704
6.8668107349569105,43.784822718747876,0.47282172020050545
6.9375890938346085,45.62392066884015,0.4691478429778628
7.008793845042635,44.03833893311957,0.46657896049823855
7.080110824513794,43.53457655902389,0.46694338678034675
7.151102136706633,44.124198321766514,0.4660159945503831
7.2221081875653255,43.74329071530843,0.4587012437108264
7.293512594717873,43.91237712700757,0.4565593815731258
7.364819415095041,43.53481849741477,0.4615107960023942
7.436024085032586,44.666325674512386,0.46313417176306404
7.507257855744531,46.15999987776881,0.467315086452185
7.578751130958611,46.10616617910894,0.4678589886925944
7.649504368971209,45.9400282258529,0.4753878731302138
7.7204030843697335,47.17862104467894,0.48952952989357384
7.791781523151572,45.91786942780225,0.4983637466333764
7.863287651217644,45.461788025900276,0.5102422287196569
